freq,psd_x,psd_y,psd_z,psd_xyz
0.0,2.337e+02,9.202e+00,2.897e+01,2.719e+02
1.5,1.434e+02,2.094e+01,3.310e+01,1.974e+02
3.0,1.826e+01,2.191e+01,2.120e+01,6.137e+01
4.6,2.693e+02,2.447e+01,2.079e+01,3.146e+02
6.1,1.053e+03,2.459e+01,2.257e+01,1.100e+03
7.6,1.743e+03,2.544e+01,2.420e+01,1.792e+03
9.1,2.455e+03,2.423e+01,2.272e+01,2.502e+03
10.6,3.308e+03,2.167e+01,2.086e+01,3.350e+03
12.1,4.235e+03,2.124e+01,2.088e+01,4.277e+03
13.7,5.362e+03,2.239e+01,2.235e+01,5.407e+03
15.2,6.516e+03,2.553e+01,2.447e+01,6.566e+03
16.7,7.816e+03,2.374e+01,2.529e+01,7.865e+03
18.2,9.390e+03,2.434e+01,2.377e+01,9.438e+03
19.7,1.142e+04,2.661e+01,2.885e+01,1.148e+04
21.2,1.366e+04,2.821e+01,3.954e+01,1.373e+04
22.8,1.595e+04,3.219e+01,6.342e+01,1.605e+04
24.3,1.817e+04,3.507e+01,8.035e+01,1.829e+04
25.8,2.024e+04,3.907e+01,1.084e+02,2.039e+04
27.3,2.185e+04,4.124e+01,1.578e+02,2.205e+04
28.8,2.434e+04,3.678e+01,1.907e+02,2.457e+04
30.3,2.871e+04,3.509e+01,2.563e+02,2.900e+04
31.9,3.312e+04,5.102e+01,4.100e+02,3.358e+04
33.4,3.567e+04,6.690e+01,5.228e+02,3.626e+04
34.9,3.829e+04,9.159e+01,6.367e+02,3.901e+04
36.4,4.327e+04,1.213e+02,8.571e+02,4.425e+04
37.9,5.062e+04,1.974e+02,1.406e+03,5.223e+04
39.4,5.868e+04,4.003e+02,2.530e+03,6.161e+04
41.0,6.215e+04,6.711e+02,3.369e+03,6.619e+04
42.5,6.240e+04,7.469e+02,2.911e+03,6.606e+04
44.0,6.806e+04,5.332e+02,1.864e+03,7.046e+04
45.5,7.524e+04,2.563e+02,9.681e+02,7.647e+04
47.0,8.083e+04,5.100e+02,2.187e+03,8.352e+04
48.5,8.890e+04,1.645e+03,7.167e+03,9.772e+04
50.1,1.012e+05,2.901e+03,1.293e+04,1.170e+05
51.6,1.185e+05,3.530e+03,1.725e+04,1.393e+05
53.1,1.381e+05,3.215e+03,1.931e+04,1.606e+05
54.6,1.604e+05,2.265e+03,1.989e+04,1.826e+05
56.1,1.900e+05,1.409e+03,2.384e+04,2.152e+05
57.6,2.166e+05,6.588e+02,3.448e+04,2.517e+05
59.2,2.381e+05,4.078e+02,5.787e+04,2.963e+05
60.7,2.516e+05,2.094e+03,8.239e+04,3.361e+05
62.2,2.797e+05,6.237e+03,9.208e+04,3.780e+05
63.7,3.487e+05,1.136e+04,9.147e+04,4.515e+05
65.2,4.675e+05,1.613e+04,8.666e+04,5.703e+05
66.7,5.943e+05,1.897e+04,8.333e+04,6.966e+05
68.3,6.336e+05,1.866e+04,7.999e+04,7.322e+05
69.8,5.912e+05,1.703e+04,7.792e+04,6.861e+05
71.3,4.975e+05,1.563e+04,7.298e+04,5.861e+05
72.8,3.844e+05,1.331e+04,5.852e+04,4.563e+05
74.3,3.142e+05,1.095e+04,4.378e+04,3.690e+05
75.8,2.506e+05,8.638e+03,3.396e+04,2.932e+05
77.4,1.785e+05,6.522e+03,2.496e+04,2.099e+05
78.9,1.245e+05,5.058e+03,1.914e+04,1.487e+05
80.4,9.541e+04,3.914e+03,1.534e+04,1.147e+05
81.9,7.629e+04,3.089e+03,1.250e+04,9.188e+04
83.4,6.489e+04,3.430e+03,1.199e+04,8.031e+04
84.9,5.660e+04,4.375e+03,1.172e+04,7.269e+04
86.5,4.886e+04,5.288e+03,1.064e+04,6.479e+04
88.0,4.652e+04,6.124e+03,9.557e+03,6.220e+04
89.5,5.134e+04,6.951e+03,8.677e+03,6.697e+04
91.0,5.812e+04,7.843e+03,7.913e+03,7.388e+04
92.5,6.315e+04,8.603e+03,7.283e+03,7.904e+04
94.1,6.438e+04,8.869e+03,6.508e+03,7.976e+04
95.6,6.006e+04,8.651e+03,5.480e+03,7.419e+04
97.1,5.436e+04,8.385e+03,4.450e+03,6.719e+04
98.6,4.943e+04,8.252e+03,3.314e+03,6.099e+04
100.1,4.458e+04,8.133e+03,2.465e+03,5.518e+04
101.6,3.645e+04,7.923e+03,1.726e+03,4.610e+04
103.2,2.822e+04,7.452e+03,1.079e+03,3.675e+04
104.7,2.027e+04,6.851e+03,6.766e+02,2.780e+04
106.2,1.480e+04,6.566e+03,4.119e+02,2.177e+04
107.7,1.113e+04,6.726e+03,3.902e+02,1.825e+04
109.2,8.860e+03,6.911e+03,5.741e+02,1.634e+04
110.7,8.744e+03,7.488e+03,8.903e+02,1.712e+04
112.3,1.094e+04,8.287e+03,1.284e+03,2.051e+04
113.8,1.625e+04,9.708e+03,1.922e+03,2.788e+04
115.3,2.565e+04,1.188e+04,3.093e+03,4.062e+04
116.8,4.065e+04,1.467e+04,4.839e+03,6.016e+04
118.3,6.210e+04,1.811e+04,7.402e+03,8.762e+04
119.8,7.708e+04,1.906e+04,9.254e+03,1.054e+05
121.4,6.285e+04,1.347e+04,7.529e+03,8.385e+04
122.9,5.834e+04,1.103e+04,6.553e+03,7.592e+04
124.4,5.619e+04,9.098e+03,5.521e+03,7.081e+04
125.9,5.487e+04,7.224e+03,5.081e+03,6.717e+04
127.4,6.525e+04,7.286e+03,5.910e+03,7.844e+04
128.9,8.256e+04,7.952e+03,7.101e+03,9.762e+04
130.5,1.059e+05,8.887e+03,8.747e+03,1.235e+05
132.0,1.241e+05,9.435e+03,1.006e+04,1.436e+05
133.5,9.319e+04,7.564e+03,7.548e+03,1.083e+05
135.0,7.194e+04,6.291e+03,5.497e+03,8.373e+04
136.5,7.120e+04,6.045e+03,5.526e+03,8.278e+04
138.0,6.856e+04,5.665e+03,5.625e+03,7.985e+04
139.6,6.273e+04,5.193e+03,4.862e+03,7.279e+04
141.1,5.330e+04,4.615e+03,3.639e+03,6.156e+04
142.6,4.687e+04,4.370e+03,4.048e+03,5.529e+04
144.1,4.105e+04,4.148e+03,5.086e+03,5.028e+04
145.6,3.776e+04,4.038e+03,6.990e+03,4.879e+04
147.1,3.700e+04,4.212e+03,9.479e+03,5.069e+04
148.7,3.952e+04,4.444e+03,1.214e+04,5.610e+04
150.2,4.290e+04,4.497e+03,1.326e+04,6.065e+04
151.7,4.120e+04,4.295e+03,1.275e+04,5.824e+04
153.2,3.832e+04,3.812e+03,1.365e+04,5.578e+04
154.7,4.995e+04,4.224e+03,1.369e+04,6.787e+04
156.2,6.052e+04,5.428e+03,1.142e+04,7.737e+04
157.8,6.739e+04,6.557e+03,1.281e+04,8.675e+04
159.3,1.015e+05,8.715e+03,2.007e+04,1.303e+05
160.8,1.469e+05,1.181e+04,2.759e+04,1.863e+05
162.3,1.497e+05,1.227e+04,2.853e+04,1.905e+05
163.8,1.449e+05,1.191e+04,3.040e+04,1.873e+05
165.3,1.444e+05,1.202e+04,2.855e+04,1.850e+05
166.9,1.429e+05,1.337e+04,2.839e+04,1.847e+05
168.4,1.383e+05,1.415e+04,3.022e+04,1.827e+05
169.9,1.345e+05,1.457e+04,3.132e+04,1.804e+05
171.4,1.357e+05,1.508e+04,3.303e+04,1.838e+05
172.9,1.294e+05,1.482e+04,3.294e+04,1.772e+05
174.4,1.227e+05,1.459e+04,3.218e+04,1.695e+05
176.0,1.185e+05,1.501e+04,3.372e+04,1.672e+05
177.5,1.114e+05,1.514e+04,3.483e+04,1.613e+05
179.0,1.055e+05,1.516e+04,3.581e+04,1.564e+05
180.5,1.021e+05,1.473e+04,3.643e+04,1.533e+05
182.0,9.497e+04,1.281e+04,3.345e+04,1.412e+05
183.6,9.276e+04,1.096e+04,2.990e+04,1.336e+05
185.1,9.647e+04,9.845e+03,2.657e+04,1.329e+05
186.6,9.753e+04,8.602e+03,2.318e+04,1.293e+05
188.1,9.827e+04,7.253e+03,2.019e+04,1.257e+05
189.6,1.037e+05,6.479e+03,1.863e+04,1.288e+05
191.1,1.178e+05,6.522e+03,1.841e+04,1.427e+05
192.7,1.330e+05,6.804e+03,1.766e+04,1.575e+05
194.2,1.357e+05,6.352e+03,1.517e+04,1.572e+05
195.7,1.306e+05,5.464e+03,1.250e+04,1.486e+05
197.2,1.125e+05,4.090e+03,9.079e+03,1.257e+05
198.7,1.014e+05,2.938e+03,6.242e+03,1.106e+05
