freq,psd_x,psd_y,psd_z,psd_xyz
0.0,2.022e+02,8.748e+00,2.898e+01,2.399e+02
1.5,1.233e+02,2.419e+01,3.430e+01,1.818e+02
3.0,2.454e+01,2.237e+01,2.054e+01,6.745e+01
4.5,2.646e+02,2.309e+01,2.045e+01,3.081e+02
6.1,9.914e+02,2.181e+01,1.955e+01,1.033e+03
7.6,1.615e+03,2.156e+01,1.915e+01,1.655e+03
9.1,2.277e+03,2.347e+01,2.151e+01,2.322e+03
10.6,3.032e+03,2.347e+01,2.060e+01,3.076e+03
12.1,3.930e+03,2.308e+01,2.150e+01,3.974e+03
13.6,4.923e+03,2.248e+01,2.217e+01,4.967e+03
15.2,6.003e+03,2.276e+01,2.149e+01,6.048e+03
16.7,7.213e+03,2.267e+01,2.052e+01,7.257e+03
18.2,8.772e+03,2.290e+01,1.990e+01,8.815e+03
19.7,1.054e+04,2.464e+01,2.044e+01,1.059e+04
21.2,1.272e+04,2.637e+01,2.638e+01,1.277e+04
22.7,1.509e+04,3.312e+01,5.572e+01,1.518e+04
24.3,1.711e+04,5.144e+01,1.316e+02,1.729e+04
25.8,1.888e+04,7.629e+01,3.096e+02,1.927e+04
27.3,2.001e+04,8.718e+01,5.192e+02,2.062e+04
28.8,2.160e+04,8.533e+01,5.798e+02,2.227e+04
30.3,2.477e+04,7.097e+01,5.029e+02,2.534e+04
31.8,2.950e+04,5.975e+01,4.408e+02,3.000e+04
33.4,3.395e+04,5.508e+01,3.858e+02,3.439e+04
34.9,3.835e+04,4.790e+01,3.067e+02,3.870e+04
36.4,4.543e+04,6.486e+01,4.206e+02,4.591e+04
37.9,5.555e+04,1.425e+02,1.082e+03,5.677e+04
39.4,6.418e+04,3.260e+02,2.186e+03,6.669e+04
40.9,6.724e+04,5.941e+02,3.219e+03,7.106e+04
42.5,7.196e+04,8.941e+02,4.133e+03,7.699e+04
44.0,7.821e+04,1.135e+03,5.174e+03,8.451e+04
45.5,7.852e+04,1.612e+03,7.899e+03,8.804e+04
47.0,7.747e+04,2.883e+03,1.612e+04,9.648e+04
48.5,8.266e+04,5.086e+03,3.124e+04,1.190e+05
50.0,8.999e+04,5.714e+03,3.767e+04,1.334e+05
51.5,9.459e+04,4.351e+03,2.911e+04,1.281e+05
53.1,1.013e+05,3.047e+03,2.101e+04,1.254e+05
54.6,1.126e+05,2.409e+03,1.938e+04,1.343e+05
56.1,1.378e+05,2.128e+03,2.107e+04,1.610e+05
57.6,1.719e+05,1.759e+03,2.561e+04,1.993e+05
59.1,2.072e+05,1.230e+03,3.405e+04,2.425e+05
60.6,2.352e+05,5.867e+02,4.271e+04,2.785e+05
62.2,2.672e+05,4.225e+02,4.958e+04,3.172e+05
63.7,3.058e+05,1.119e+03,4.986e+04,3.567e+05
65.2,3.502e+05,2.053e+03,4.518e+04,3.974e+05
66.7,4.150e+05,2.818e+03,4.464e+04,4.625e+05
68.2,4.779e+05,3.391e+03,4.526e+04,5.265e+05
69.7,5.010e+05,4.111e+03,4.626e+04,5.513e+05
71.3,4.662e+05,5.016e+03,4.739e+04,5.186e+05
72.8,4.264e+05,6.343e+03,4.796e+04,4.807e+05
74.3,4.207e+05,8.431e+03,4.745e+04,4.765e+05
75.8,3.806e+05,8.730e+03,4.034e+04,4.296e+05
77.3,3.017e+05,6.596e+03,2.776e+04,3.360e+05
78.8,2.167e+05,4.306e+03,1.751e+04,2.385e+05
80.4,1.579e+05,2.789e+03,1.201e+04,1.727e+05
81.9,1.226e+05,1.794e+03,8.955e+03,1.334e+05
83.4,1.028e+05,1.141e+03,7.725e+03,1.117e+05
84.9,9.293e+04,8.146e+02,7.054e+03,1.008e+05
86.4,8.166e+04,6.652e+02,6.587e+03,8.892e+04
87.9,6.230e+04,9.367e+02,6.840e+03,7.008e+04
89.4,4.704e+04,1.895e+03,8.716e+03,5.765e+04
91.0,4.296e+04,3.231e+03,1.035e+04,5.654e+04
92.5,4.262e+04,4.447e+03,1.050e+04,5.757e+04
94.0,4.335e+04,5.348e+03,9.434e+03,5.813e+04
95.5,4.277e+04,6.517e+03,8.142e+03,5.743e+04
97.0,4.125e+04,7.821e+03,7.245e+03,5.632e+04
98.5,4.000e+04,9.080e+03,6.300e+03,5.538e+04
100.1,3.708e+04,1.004e+04,5.362e+03,5.248e+04
101.6,2.991e+04,1.049e+04,4.056e+03,4.446e+04
103.1,2.214e+04,9.439e+03,2.173e+03,3.375e+04
104.6,1.613e+04,7.921e+03,9.786e+02,2.503e+04
106.1,1.271e+04,6.874e+03,5.807e+02,2.016e+04
107.6,1.152e+04,6.775e+03,5.272e+02,1.883e+04
109.2,1.089e+04,6.742e+03,6.202e+02,1.825e+04
110.7,1.134e+04,6.767e+03,7.734e+02,1.888e+04
112.2,1.346e+04,6.947e+03,1.002e+03,2.141e+04
113.7,1.733e+04,7.273e+03,1.427e+03,2.603e+04
115.2,2.334e+04,7.782e+03,2.116e+03,3.324e+04
116.7,3.140e+04,8.606e+03,2.929e+03,4.294e+04
118.3,4.258e+04,9.732e+03,4.136e+03,5.645e+04
119.8,5.320e+04,1.030e+04,5.047e+03,6.855e+04
121.3,5.127e+04,8.722e+03,4.263e+03,6.426e+04
122.8,5.477e+04,8.174e+03,4.232e+03,6.717e+04
124.3,5.731e+04,7.288e+03,4.774e+03,6.937e+04
125.8,5.622e+04,6.041e+03,5.097e+03,6.736e+04
127.4,6.592e+04,6.347e+03,6.248e+03,7.852e+04
128.9,8.093e+04,7.161e+03,7.756e+03,9.584e+04
130.4,9.734e+04,8.228e+03,9.233e+03,1.148e+05
131.9,1.090e+05,9.199e+03,9.951e+03,1.281e+05
133.4,8.667e+04,7.789e+03,7.672e+03,1.021e+05
134.9,6.697e+04,6.407e+03,5.899e+03,7.928e+04
136.4,6.430e+04,6.109e+03,5.271e+03,7.568e+04
138.0,5.959e+04,5.481e+03,4.798e+03,6.987e+04
139.5,5.487e+04,4.854e+03,4.516e+03,6.424e+04
141.0,4.926e+04,4.294e+03,4.451e+03,5.800e+04
142.5,4.468e+04,3.993e+03,4.675e+03,5.334e+04
144.0,4.159e+04,3.864e+03,5.454e+03,5.091e+04
145.5,3.918e+04,3.659e+03,5.740e+03,4.858e+04
147.1,3.405e+04,3.427e+03,5.583e+03,4.306e+04
148.6,3.728e+04,3.866e+03,7.337e+03,4.848e+04
150.1,4.344e+04,4.113e+03,9.602e+03,5.716e+04
151.6,4.967e+04,4.265e+03,1.080e+04,6.473e+04
153.1,5.371e+04,4.266e+03,9.729e+03,6.771e+04
154.6,5.015e+04,4.157e+03,7.502e+03,6.181e+04
156.2,5.541e+04,4.914e+03,1.013e+04,7.046e+04
157.7,7.375e+04,6.147e+03,1.390e+04,9.379e+04
159.2,1.137e+05,9.098e+03,2.091e+04,1.437e+05
160.7,1.681e+05,1.324e+04,3.088e+04,2.122e+05
162.2,1.704e+05,1.329e+04,3.244e+04,2.161e+05
163.7,1.716e+05,1.202e+04,3.221e+04,2.158e+05
165.3,1.735e+05,1.076e+04,2.803e+04,2.123e+05
166.8,1.744e+05,1.068e+04,2.280e+04,2.079e+05
168.3,1.719e+05,1.176e+04,1.994e+04,2.036e+05
169.8,1.690e+05,1.324e+04,2.061e+04,2.029e+05
171.3,1.662e+05,1.458e+04,2.421e+04,2.050e+05
172.8,1.587e+05,1.354e+04,2.839e+04,2.007e+05
174.4,1.531e+05,1.277e+04,2.980e+04,1.956e+05
175.9,1.476e+05,1.274e+04,3.135e+04,1.917e+05
177.4,1.376e+05,1.195e+04,3.216e+04,1.817e+05
178.9,1.310e+05,1.133e+04,2.814e+04,1.704e+05
180.4,1.294e+05,1.250e+04,2.791e+04,1.698e+05
181.9,1.291e+05,1.309e+04,2.929e+04,1.715e+05
183.4,1.319e+05,1.289e+04,2.892e+04,1.737e+05
185.0,1.325e+05,1.185e+04,2.661e+04,1.710e+05
186.5,1.316e+05,1.082e+04,2.401e+04,1.665e+05
188.0,1.316e+05,9.926e+03,2.179e+04,1.633e+05
189.5,1.339e+05,9.194e+03,2.049e+04,1.636e+05
191.0,1.452e+05,9.108e+03,2.096e+04,1.753e+05
192.5,1.566e+05,8.787e+03,2.044e+04,1.858e+05
194.1,1.614e+05,7.687e+03,1.821e+04,1.873e+05
195.6,1.570e+05,6.545e+03,1.555e+04,1.791e+05
197.1,1.395e+05,4.863e+03,1.199e+04,1.563e+05
198.6,1.202e+05,3.389e+03,8.410e+03,1.320e+05
