freq,psd_x,psd_y,psd_z,psd_xyz
0.0,2.027e+02,8.629e+00,2.301e+01,2.343e+02
1.5,1.229e+02,2.028e+01,3.015e+01,1.734e+02
3.0,2.085e+01,2.057e+01,2.084e+01,6.226e+01
4.5,2.630e+02,2.004e+01,1.858e+01,3.016e+02
6.1,1.034e+03,2.174e+01,2.089e+01,1.076e+03
7.6,1.707e+03,2.132e+01,2.057e+01,1.749e+03
9.1,2.387e+03,2.067e+01,2.072e+01,2.429e+03
10.6,3.200e+03,2.011e+01,1.959e+01,3.240e+03
12.1,4.109e+03,1.954e+01,1.934e+01,4.148e+03
13.6,5.147e+03,1.967e+01,2.062e+01,5.187e+03
15.2,6.275e+03,2.084e+01,2.098e+01,6.317e+03
16.7,7.549e+03,2.037e+01,1.948e+01,7.589e+03
18.2,9.073e+03,1.882e+01,2.151e+01,9.113e+03
19.7,1.074e+04,1.999e+01,2.135e+01,1.078e+04
21.2,1.272e+04,2.392e+01,2.114e+01,1.277e+04
22.7,1.494e+04,2.641e+01,2.765e+01,1.500e+04
24.3,1.751e+04,4.026e+01,7.158e+01,1.762e+04
25.8,1.996e+04,5.837e+01,1.873e+02,2.020e+04
27.3,2.105e+04,7.220e+01,4.316e+02,2.155e+04
28.8,2.216e+04,8.347e+01,6.676e+02,2.291e+04
30.3,2.540e+04,8.298e+01,7.249e+02,2.621e+04
31.8,3.017e+04,8.728e+01,7.937e+02,3.105e+04
33.3,3.482e+04,1.071e+02,9.433e+02,3.587e+04
34.9,3.878e+04,1.057e+02,8.719e+02,3.976e+04
36.4,4.457e+04,1.072e+02,8.305e+02,4.551e+04
37.9,5.334e+04,1.609e+02,1.207e+03,5.471e+04
39.4,6.291e+04,3.572e+02,2.438e+03,6.570e+04
40.9,7.044e+04,1.011e+03,5.541e+03,7.699e+04
42.4,7.637e+04,2.309e+03,1.030e+04,8.898e+04
44.0,8.218e+04,3.623e+03,1.490e+04,1.007e+05
45.5,8.106e+04,4.317e+03,1.939e+04,1.048e+05
47.0,7.477e+04,4.872e+03,2.576e+04,1.054e+05
48.5,7.251e+04,4.944e+03,2.839e+04,1.058e+05
50.0,7.140e+04,3.658e+03,2.303e+04,9.809e+04
51.5,7.028e+04,1.957e+03,1.344e+04,8.568e+04
53.1,7.367e+04,1.168e+03,9.310e+03,8.415e+04
54.6,8.375e+04,7.471e+02,8.296e+03,9.279e+04
56.1,1.000e+05,5.479e+02,9.054e+03,1.096e+05
57.6,1.220e+05,4.532e+02,1.159e+04,1.340e+05
59.1,1.491e+05,3.148e+02,1.793e+04,1.673e+05
60.6,1.791e+05,1.595e+02,2.904e+04,2.083e+05
62.1,1.886e+05,4.375e+02,4.018e+04,2.292e+05
63.7,1.780e+05,1.459e+03,4.335e+04,2.228e+05
65.2,2.055e+05,2.849e+03,3.947e+04,2.478e+05
66.7,2.693e+05,4.822e+03,3.627e+04,3.104e+05
68.2,3.329e+05,7.187e+03,4.009e+04,3.802e+05
69.7,3.652e+05,8.305e+03,4.406e+04,4.176e+05
71.2,3.745e+05,9.078e+03,4.793e+04,4.315e+05
72.8,3.568e+05,1.023e+04,5.076e+04,4.177e+05
74.3,3.600e+05,1.228e+04,5.339e+04,4.257e+05
75.8,3.795e+05,1.354e+04,5.067e+04,4.437e+05
77.3,3.417e+05,1.223e+04,3.942e+04,3.934e+05
78.8,2.590e+05,1.001e+04,2.816e+04,2.971e+05
80.3,1.934e+05,8.179e+03,2.125e+04,2.228e+05
81.9,1.487e+05,6.482e+03,1.656e+04,1.717e+05
83.4,1.087e+05,4.220e+03,1.169e+04,1.246e+05
84.9,7.791e+04,2.551e+03,8.297e+03,8.876e+04
86.4,5.728e+04,2.001e+03,7.336e+03,6.662e+04
87.9,4.090e+04,2.145e+03,7.327e+03,5.037e+04
89.4,2.901e+04,2.499e+03,7.021e+03,3.853e+04
90.9,2.528e+04,2.862e+03,6.458e+03,3.460e+04
92.5,2.795e+04,3.468e+03,6.238e+03,3.765e+04
94.0,3.106e+04,4.404e+03,6.376e+03,4.184e+04
95.5,3.036e+04,5.341e+03,6.516e+03,4.222e+04
97.0,2.922e+04,6.300e+03,6.517e+03,4.203e+04
98.5,2.895e+04,7.410e+03,6.496e+03,4.286e+04
100.0,2.960e+04,8.670e+03,6.270e+03,4.454e+04
101.6,2.809e+04,9.726e+03,5.382e+03,4.320e+04
103.1,2.378e+04,1.036e+04,4.269e+03,3.841e+04
104.6,1.778e+04,1.023e+04,3.017e+03,3.103e+04
106.1,1.272e+04,9.425e+03,1.600e+03,2.375e+04
107.6,9.988e+03,8.677e+03,7.465e+02,1.941e+04
109.1,9.181e+03,8.349e+03,5.913e+02,1.812e+04
110.7,1.030e+04,8.284e+03,9.017e+02,1.949e+04
112.2,1.310e+04,8.352e+03,1.389e+03,2.284e+04
113.7,1.730e+04,8.533e+03,2.008e+03,2.784e+04
115.2,2.319e+04,8.831e+03,2.687e+03,3.471e+04
116.7,3.113e+04,9.388e+03,3.427e+03,4.394e+04
118.2,4.108e+04,1.021e+04,4.390e+03,5.568e+04
119.7,5.157e+04,1.106e+04,5.481e+03,6.811e+04
121.3,5.449e+04,1.041e+04,5.888e+03,7.079e+04
122.8,6.009e+04,1.024e+04,6.277e+03,7.661e+04
124.3,6.054e+04,8.993e+03,5.853e+03,7.538e+04
125.8,5.551e+04,7.248e+03,5.036e+03,6.779e+04
127.3,6.055e+04,7.376e+03,5.577e+03,7.350e+04
128.8,7.203e+04,8.242e+03,5.990e+03,8.626e+04
130.4,8.174e+04,8.603e+03,6.120e+03,9.647e+04
131.9,8.894e+04,8.868e+03,6.502e+03,1.043e+05
133.4,7.013e+04,7.199e+03,5.460e+03,8.279e+04
134.9,5.501e+04,5.845e+03,4.630e+03,6.548e+04
136.4,5.727e+04,5.806e+03,4.962e+03,6.804e+04
137.9,5.728e+04,5.474e+03,4.719e+03,6.747e+04
139.5,5.618e+04,5.186e+03,4.544e+03,6.591e+04
141.0,5.194e+04,4.770e+03,4.500e+03,6.121e+04
142.5,4.835e+04,4.662e+03,4.535e+03,5.754e+04
144.0,4.518e+04,4.588e+03,4.207e+03,5.398e+04
145.5,4.234e+04,4.484e+03,4.078e+03,5.090e+04
147.0,3.812e+04,4.152e+03,4.491e+03,4.677e+04
148.5,3.567e+04,4.062e+03,5.323e+03,4.506e+04
150.1,3.079e+04,3.770e+03,5.918e+03,4.047e+04
151.6,3.222e+04,4.138e+03,8.774e+03,4.513e+04
153.1,4.165e+04,4.826e+03,1.211e+04,5.858e+04
154.6,4.814e+04,5.077e+03,1.331e+04,6.652e+04
156.1,4.519e+04,4.603e+03,1.344e+04,6.324e+04
157.6,5.262e+04,4.893e+03,1.398e+04,7.149e+04
159.2,9.576e+04,7.981e+03,1.786e+04,1.216e+05
160.7,1.495e+05,1.209e+04,2.413e+04,1.857e+05
162.2,1.500e+05,1.261e+04,2.346e+04,1.860e+05
163.7,1.491e+05,1.199e+04,2.542e+04,1.865e+05
165.2,1.482e+05,1.136e+04,2.542e+04,1.850e+05
166.7,1.424e+05,1.094e+04,2.430e+04,1.777e+05
168.3,1.356e+05,1.021e+04,2.337e+04,1.692e+05
169.8,1.366e+05,1.088e+04,2.099e+04,1.685e+05
171.3,1.431e+05,1.271e+04,2.250e+04,1.783e+05
172.8,1.413e+05,1.293e+04,2.402e+04,1.783e+05
174.3,1.359e+05,1.299e+04,2.481e+04,1.737e+05
175.8,1.309e+05,1.338e+04,2.633e+04,1.706e+05
177.3,1.242e+05,1.353e+04,2.769e+04,1.655e+05
178.9,1.166e+05,1.334e+04,2.834e+04,1.583e+05
180.4,1.139e+05,1.356e+04,2.896e+04,1.565e+05
181.9,1.125e+05,1.386e+04,2.903e+04,1.554e+05
183.4,1.127e+05,1.399e+04,2.842e+04,1.551e+05
184.9,1.107e+05,1.320e+04,2.616e+04,1.500e+05
186.4,1.084e+05,1.192e+04,2.361e+04,1.439e+05
188.0,1.048e+05,1.016e+04,2.053e+04,1.355e+05
189.5,1.017e+05,8.668e+03,1.823e+04,1.286e+05
191.0,1.076e+05,7.897e+03,1.761e+04,1.331e+05
192.5,1.304e+05,8.169e+03,1.820e+04,1.568e+05
194.0,1.393e+05,7.837e+03,1.704e+04,1.641e+05
195.5,1.360e+05,6.662e+03,1.484e+04,1.575e+05
197.1,1.324e+05,5.133e+03,1.237e+04,1.499e+05
198.6,1.269e+05,3.801e+03,9.903e+03,1.406e+05
