freq,psd_x,psd_y,psd_z,psd_xyz
0.0,5.618e+02,9.319e+01,8.616e+01,7.412e+02
1.6,4.195e+02,1.702e+02,1.318e+02,7.215e+02
3.2,1.446e+02,1.576e+02,1.171e+02,4.192e+02
4.9,4.398e+02,1.149e+02,1.201e+02,6.748e+02
6.5,1.188e+03,1.110e+02,1.210e+02,1.420e+03
8.1,1.879e+03,1.352e+02,1.162e+02,2.131e+03
9.7,2.574e+03,1.236e+02,1.095e+02,2.807e+03
11.3,3.424e+03,1.324e+02,1.169e+02,3.673e+03
12.9,4.373e+03,1.347e+02,1.218e+02,4.630e+03
14.6,5.442e+03,1.247e+02,1.263e+02,5.693e+03
16.2,6.721e+03,1.273e+02,1.236e+02,6.972e+03
17.8,8.497e+03,1.341e+02,1.253e+02,8.756e+03
19.4,1.065e+04,1.239e+02,1.189e+02,1.090e+04
21.0,1.182e+04,1.044e+02,1.196e+02,1.204e+04
22.6,1.275e+04,1.047e+02,1.225e+02,1.297e+04
24.3,1.484e+04,1.330e+02,1.246e+02,1.510e+04
25.9,1.716e+04,1.124e+02,1.199e+02,1.739e+04
27.5,2.004e+04,1.081e+02,1.253e+02,2.027e+04
29.1,2.299e+04,1.120e+02,1.406e+02,2.324e+04
30.7,2.756e+04,1.203e+02,1.418e+02,2.782e+04
32.3,3.246e+04,1.239e+02,1.464e+02,3.273e+04
34.0,3.625e+04,1.236e+02,1.636e+02,3.654e+04
35.6,4.201e+04,1.565e+02,1.725e+02,4.234e+04
37.2,5.086e+04,1.845e+02,1.801e+02,5.123e+04
38.8,6.122e+04,1.992e+02,2.369e+02,6.166e+04
40.4,7.058e+04,2.432e+02,3.398e+02,7.116e+04
42.0,7.834e+04,3.642e+02,5.732e+02,7.927e+04
43.7,9.417e+04,6.932e+02,1.075e+03,9.594e+04
45.3,1.154e+05,1.412e+03,2.053e+03,1.189e+05
46.9,1.396e+05,2.526e+03,3.461e+03,1.455e+05
48.5,1.704e+05,5.076e+03,6.876e+03,1.824e+05
50.1,2.149e+05,1.516e+04,2.031e+04,2.504e+05
51.7,2.629e+05,5.582e+04,7.224e+04,3.910e+05
53.4,2.952e+05,1.189e+05,1.524e+05,5.665e+05
55.0,3.877e+05,1.502e+05,1.935e+05,7.313e+05
56.6,5.897e+05,1.577e+05,2.116e+05,9.591e+05
58.2,9.155e+05,1.644e+05,2.356e+05,1.315e+06
59.8,1.390e+06,1.832e+05,2.762e+05,1.850e+06
61.4,1.733e+06,2.008e+05,3.167e+05,2.250e+06
63.1,1.549e+06,1.787e+05,2.977e+05,2.025e+06
64.7,1.070e+06,1.329e+05,2.353e+05,1.438e+06
66.3,5.919e+05,8.580e+04,1.630e+05,8.407e+05
67.9,2.998e+05,5.401e+04,1.127e+05,4.665e+05
69.5,1.516e+05,3.737e+04,8.270e+04,2.717e+05
71.2,8.064e+04,2.853e+04,6.417e+04,1.733e+05
72.8,5.471e+04,2.274e+04,5.015e+04,1.276e+05
74.4,4.420e+04,1.861e+04,3.914e+04,1.020e+05
76.0,3.798e+04,1.505e+04,3.365e+04,8.668e+04
77.6,2.921e+04,1.297e+04,2.938e+04,7.156e+04
79.2,2.318e+04,1.395e+04,2.883e+04,6.596e+04
80.9,2.460e+04,1.774e+04,3.337e+04,7.570e+04
82.5,3.475e+04,2.493e+04,4.745e+04,1.071e+05
84.1,5.682e+04,2.907e+04,6.479e+04,1.507e+05
85.7,9.620e+04,2.777e+04,7.762e+04,2.016e+05
87.3,1.685e+05,2.612e+04,9.300e+04,2.877e+05
88.9,2.473e+05,2.328e+04,1.075e+05,3.782e+05
90.6,2.870e+05,1.980e+04,1.070e+05,4.138e+05
92.2,3.217e+05,1.855e+04,1.015e+05,4.417e+05
93.8,3.625e+05,2.055e+04,9.383e+04,4.768e+05
95.4,4.011e+05,2.992e+04,8.245e+04,5.134e+05
97.0,4.451e+05,4.968e+04,6.525e+04,5.600e+05
98.6,5.217e+05,6.386e+04,4.903e+04,6.346e+05
100.3,5.876e+05,6.649e+04,4.282e+04,6.969e+05
101.9,6.489e+05,6.966e+04,3.650e+04,7.551e+05
103.5,7.308e+05,7.626e+04,3.061e+04,8.376e+05
105.1,7.981e+05,8.226e+04,2.404e+04,9.044e+05
106.7,9.012e+05,8.472e+04,1.737e+04,1.003e+06
108.3,1.087e+06,8.107e+04,1.361e+04,1.182e+06
110.0,1.263e+06,7.861e+04,1.001e+04,1.352e+06
111.6,1.428e+06,8.264e+04,6.976e+03,1.518e+06
113.2,1.616e+06,8.735e+04,4.732e+03,1.708e+06
114.8,1.810e+06,8.894e+04,3.561e+03,1.903e+06
116.4,2.053e+06,8.562e+04,4.156e+03,2.143e+06
118.0,2.313e+06,8.168e+04,6.134e+03,2.401e+06
119.7,2.359e+06,7.403e+04,7.464e+03,2.440e+06
121.3,1.741e+06,5.731e+04,4.822e+03,1.804e+06
122.9,1.397e+06,5.030e+04,3.321e+03,1.451e+06
124.5,1.478e+06,5.351e+04,4.103e+03,1.535e+06
126.1,1.555e+06,5.661e+04,5.242e+03,1.616e+06
127.7,1.554e+06,5.623e+04,6.448e+03,1.617e+06
129.4,1.523e+06,5.585e+04,7.675e+03,1.587e+06
131.0,1.428e+06,5.617e+04,8.759e+03,1.493e+06
132.6,9.863e+05,4.330e+04,7.090e+03,1.037e+06
134.2,2.078e+05,1.218e+04,2.067e+03,2.220e+05
135.8,6.033e+04,7.649e+03,1.323e+03,6.930e+04
137.5,5.607e+04,1.023e+04,1.615e+03,6.792e+04
139.1,5.196e+04,1.356e+04,1.996e+03,6.752e+04
140.7,4.475e+04,1.707e+04,2.451e+03,6.427e+04
142.3,3.640e+04,2.100e+04,2.753e+03,6.015e+04
143.9,2.946e+04,2.338e+04,2.804e+03,5.565e+04
145.5,2.788e+04,2.104e+04,2.464e+03,5.139e+04
147.2,2.789e+04,1.644e+04,1.976e+03,4.631e+04
148.8,2.381e+04,1.490e+04,1.749e+03,4.046e+04
150.4,2.120e+04,1.536e+04,1.728e+03,3.829e+04
152.0,2.114e+04,1.433e+04,1.552e+03,3.702e+04
153.6,2.340e+04,1.314e+04,1.331e+03,3.787e+04
155.2,2.374e+04,1.185e+04,1.069e+03,3.667e+04
156.9,2.042e+04,1.245e+04,1.015e+03,3.389e+04
158.5,2.704e+04,1.847e+04,1.336e+03,4.684e+04
160.1,3.463e+04,2.576e+04,1.501e+03,6.189e+04
161.7,2.926e+04,2.235e+04,1.292e+03,5.290e+04
163.3,1.895e+04,1.465e+04,1.306e+03,3.491e+04
164.9,1.129e+04,9.674e+03,1.589e+03,2.256e+04
166.6,9.124e+03,8.098e+03,2.081e+03,1.930e+04
168.2,9.687e+03,6.800e+03,2.381e+03,1.887e+04
169.8,1.227e+04,6.691e+03,2.160e+03,2.112e+04
171.4,1.647e+04,8.155e+03,1.869e+03,2.650e+04
173.0,2.165e+04,1.010e+04,2.026e+03,3.377e+04
174.6,2.330e+04,1.219e+04,1.767e+03,3.726e+04
176.3,2.735e+04,9.426e+03,2.148e+03,3.893e+04
177.9,3.569e+04,7.983e+03,2.791e+03,4.646e+04
179.5,4.618e+04,7.141e+03,3.335e+03,5.666e+04
181.1,5.408e+04,7.217e+03,3.805e+03,6.510e+04
182.7,6.157e+04,8.144e+03,4.059e+03,7.377e+04
184.3,6.787e+04,1.145e+04,4.525e+03,8.384e+04
186.0,5.840e+04,2.707e+04,4.215e+03,8.968e+04
187.6,3.722e+04,2.363e+04,2.357e+03,6.321e+04
189.2,3.563e+04,1.214e+04,2.119e+03,4.989e+04
190.8,4.823e+04,1.002e+04,2.330e+03,6.058e+04
192.4,6.411e+04,1.188e+04,2.541e+03,7.853e+04
194.1,7.938e+04,1.655e+04,2.728e+03,9.865e+04
195.7,9.849e+04,2.431e+04,2.980e+03,1.258e+05
197.3,1.134e+05,3.401e+04,3.447e+03,1.508e+05
198.9,1.271e+05,4.482e+04,3.851e+03,1.758e+05
